# #Freq[Hz], #Gain_mean[a.u.], #Gain_std[a.u.], #Phase_mean[rad], #Phase_std[rad]
2.000000000000000227e+03,1.218047906015603088e+00,2.026760726501974853e-04,2.897812510432643762e+00,3.098671771440422392e-04
2.008351824886009126e+03,1.218503408238346131e+00,1.540850804779155773e-04,2.896720407382225027e+00,2.342134212519119492e-04
2.016738526261481411e+03,1.218999890585471091e+00,3.302242079785904600e-04,2.895676115947608764e+00,2.469579115520260416e-04
2.025160249767583082e+03,1.219567658301813795e+00,3.132710988682833549e-04,2.894487476182312946e+00,2.083282712513369859e-04
2.033617141653665612e+03,1.219993416356963234e+00,3.763196999833182295e-04,2.893366535724015698e+00,2.334967107043571836e-04
2.042109348779806396e+03,1.220717794212570206e+00,1.635508780533708340e-04,2.892152648484424216e+00,1.862318769226080958e-04
2.050637018619351693e+03,1.221047703539744012e+00,2.887200319167023137e-04,2.890950723561898528e+00,1.788176532929061332e-04
2.059200299261489818e+03,1.221618948814557459e+00,2.307624970240957870e-04,2.889803146749291507e+00,2.162180055950367315e-04
2.067799339413814323e+03,1.222244146762535788e+00,2.461760201946484937e-04,2.888496017802213434e+00,1.965787448968069843e-04
2.076434288404908784e+03,1.222829991309785980e+00,2.701407994524698667e-04,2.887375983620773745e+00,2.442634935921002867e-04
2.085105296186939995e+03,1.223459600645875556e+00,2.543089659616069452e-04,2.886162234320192255e+00,2.423218079293896902e-04
2.093812513338261851e+03,1.223967810048818272e+00,2.505984863425174077e-04,2.884934589330193866e+00,1.762168858275000379e-04
2.102556091066029239e+03,1.224663697297476705e+00,2.216672423703590160e-04,2.883612933184273253e+00,2.916566993952447360e-04
2.111336181208826929e+03,1.225250888896928902e+00,2.375618047850950492e-04,2.882447432580022006e+00,1.729660014475532695e-04
2.120152936239304381e+03,1.225765511635711347e+00,2.229269844979307963e-04,2.881287948302003521e+00,2.840557681408875570e-04
2.129006509266818739e+03,1.226337287693286537e+00,2.373705279224929245e-04,2.879981452081017412e+00,2.030484581220868949e-04
2.137897054040103285e+03,1.226990186235491498e+00,1.793390460411465204e-04,2.878749824287734072e+00,2.052620777269487389e-04
2.146824724949931806e+03,1.227599514295682592e+00,2.656387305074393770e-04,2.877654872046965018e+00,1.903606991260329043e-04
2.155789677031800238e+03,1.228175111299965483e+00,1.886658552653801887e-04,2.876361248933116066e+00,1.873752597949187193e-04
2.164792065968617862e+03,1.228754159679596558e+00,1.880556628379345652e-04,2.875031108110488454e+00,1.624730197777788081e-04
2.173832048093413505e+03,1.229458966141460774e+00,2.709154429929615856e-04,2.873675276745373264e+00,1.888891252467790670e-04
2.182909780392048560e+03,1.230096844538970835e+00,1.894328992918796093e-04,2.872521262671412501e+00,2.327099745907874374e-04
2.192025420505943657e+03,1.230679336566330662e+00,3.652057378078104092e-04,2.871144947293312377e+00,2.519845243610008192e-04
2.201179126734816691e+03,1.231305816555753330e+00,1.875888203936250300e-04,2.869908005020544994e+00,2.367583210138102863e-04
2.210371058039432683e+03,1.231918161396264422e+00,2.402612308123969957e-04,2.868630441742891612e+00,2.229006892518179707e-04
2.219601374044356362e+03,1.232584840647403590e+00,1.400739933174852028e-04,2.867287851792069908e+00,2.405900166189104295e-04
2.228870235040737953e+03,1.233219863578780329e+00,2.160210281612516211e-04,2.865944024177681904e+00,2.321950223395168825e-04
2.238177801989086674e+03,1.233814143398425767e+00,1.842748787755465307e-04,2.864672126334600666e+00,2.323403800584883849e-04
2.247524236522069259e+03,1.234508059443513606e+00,2.375118773841335639e-04,2.863311530563081408e+00,2.408038268465722946e-04
2.256909700947316196e+03,1.235298114733941466e+00,2.607931132766614290e-04,2.861969989071658560e+00,2.236724440905633502e-04
2.266334358250239347e+03,1.235865910747496521e+00,1.676551094424380832e-04,2.860565200222131566e+00,2.467818184119528529e-04
2.275798372096865023e+03,1.236596751473355571e+00,2.743370267132036835e-04,2.859278845473202324e+00,2.610736238795383210e-04
2.285301906836673879e+03,1.237290147146615116e+00,1.905707452104447711e-04,2.857857386672470135e+00,2.511318120387470948e-04
2.294845127505457185e+03,1.237961702236627604e+00,1.715771309076245983e-04,2.856510397911758758e+00,2.685615900736547119e-04
2.304428199828175366e+03,1.238759127581036568e+00,1.860055587130604550e-04,2.855166819016029756e+00,2.224073929878720758e-04
2.314051290221848376e+03,1.239491299599869256e+00,2.032431175778198816e-04,2.853693238529395160e+00,1.646483368541194542e-04
2.323714565798436070e+03,1.240070869048029323e+00,2.928215732924322650e-04,2.852391279313569505e+00,2.865468450233794396e-04
2.333418194367744491e+03,1.240761839522035226e+00,3.010629079275518784e-04,2.850982141635943101e+00,2.970637097549144799e-04
2.343162344440337620e+03,1.241456901419596193e+00,2.246932548732679291e-04,2.849581940203468999e+00,1.926436130793536875e-04
2.352947185230465493e+03,1.242270053917886807e+00,2.374754326180840013e-04,2.848123871197038248e+00,3.407625835996962800e-04
2.362772886659001870e+03,1.242959809165067542e+00,2.492441433878787469e-04,2.846719744500813221e+00,2.470236928710009940e-04
2.372639619356394633e+03,1.243833290203268271e+00,1.727608780412258739e-04,2.845241805987429817e+00,1.900187188856522556e-04
2.382547554665633015e+03,1.244425140904504179e+00,2.190278243894893198e-04,2.843888137505174551e+00,2.304341619578000185e-04
2.392496864645211190e+03,1.245312493419837185e+00,2.224568160141028594e-04,2.842286795843079972e+00,2.552738220189947906e-04
2.402487722072131874e+03,1.245938043159666275e+00,1.565846100478031572e-04,2.840883726943007836e+00,2.617412587615882877e-04
2.412520300444898567e+03,1.246717745655470111e+00,3.179709268396281509e-04,2.839425576181554334e+00,3.245993255404971338e-04
2.422594773986527343e+03,1.247545609959441304e+00,1.748624987516439282e-04,2.837907857377094167e+00,2.458954734437363530e-04
2.432711317647575015e+03,1.248295951481213084e+00,1.825373023297486696e-04,2.836410224098322885e+00,1.905509418016541575e-04
2.442870107109177297e+03,1.249134771868402494e+00,2.661264736213473205e-04,2.834907385630338617e+00,2.106755049126111359e-04
2.453071318786098345e+03,1.249831677554919196e+00,1.621635759805157770e-04,2.833407324693581586e+00,2.551658418220556002e-04
2.463315129829794387e+03,1.250763656391257861e+00,1.768936166382749082e-04,2.831879790596034230e+00,2.411485957845249889e-04
2.473601718131494181e+03,1.251447914178866361e+00,2.120587554855642664e-04,2.830316626449752793e+00,2.847130165063552253e-04
2.483931262325276748e+03,1.252242223994951331e+00,2.811723139165227107e-04,2.828826914637671663e+00,2.938851272511238321e-04
2.494303941791188663e+03,1.253214192126506754e+00,1.498711617470938702e-04,2.827208845161824691e+00,2.634214417045875221e-04
2.504719936658349525e+03,1.254063838431057842e+00,2.179740341394298734e-04,2.825679228399258225e+00,2.182145246721770102e-04
2.515179427808082437e+03,1.254770064453952116e+00,2.595392528348314503e-04,2.824126330490190906e+00,2.092236225989062401e-04
2.525682596877055403e+03,1.255718362698877488e+00,1.978064653905929756e-04,2.822563673573827536e+00,2.402365111902152477e-04
2.536229626260434088e+03,1.256550242963195174e+00,1.217845919869373604e-04,2.821009727993671667e+00,2.990365596723578031e-04
2.546820699115051411e+03,1.257316342359338313e+00,2.376022203413969357e-04,2.819362610478047593e+00,2.967403783890210523e-04
2.557455999362587136e+03,1.258221924997733776e+00,1.662287419491459829e-04,2.817682737446481678e+00,2.880502749263298928e-04
2.568135711692762015e+03,1.259009468716358437e+00,1.939887004147327774e-04,2.816038142925827881e+00,1.952824845710524374e-04
2.578860021566546493e+03,1.260014440007123815e+00,2.650765909536515678e-04,2.814499634977750464e+00,2.799760297751878262e-04
2.589629115219373034e+03,1.260942544550556432e+00,2.102114318156056763e-04,2.812772191095091578e+00,2.258599657419955358e-04
2.600443179664383933e+03,1.261741868938459188e+00,3.003294024540482270e-04,2.811202576102302952e+00,2.545100022298674961e-04
2.611302402695670935e+03,1.262687343701222487e+00,2.098933131925763158e-04,2.809458060140072710e+00,3.146705273051127899e-04
2.622206972891534861e+03,1.263666240665916041e+00,2.948778360532063503e-04,2.807830875955679595e+00,2.745838932332281160e-04
2.633157079617765703e+03,1.264502267055718887e+00,2.928174097489777612e-04,2.806160986075241226e+00,2.313500118759061956e-04
2.644152913030926811e+03,1.265498340161923974e+00,1.865273482171762019e-04,2.804458121930009096e+00,2.795489278333157263e-04
2.655194664081659084e+03,1.266466824180643158e+00,2.064609556131707870e-04,2.802697703097218440e+00,2.909932878599402273e-04
2.666282524517996990e+03,1.267450881915599625e+00,1.781239383275745505e-04,2.800983888411307188e+00,2.560640996650623020e-04
2.677416686888699587e+03,1.268439462557170661e+00,1.197512510116676001e-04,2.799214428921231068e+00,2.264865988264935727e-04
2.688597344546586100e+03,1.269186184661574845e+00,1.615811717582355065e-04,2.797567771400307546e+00,2.451175559472112183e-04
2.699824691651906960e+03,1.270300361795968946e+00,1.498787003145721653e-04,2.795783710966696312e+00,2.978467917927607998e-04
2.711098923175706659e+03,1.271196059198300699e+00,1.927035696211736764e-04,2.793997629042553221e+00,3.081127709335182300e-04
2.722420234903212076e+03,1.272191383638906492e+00,2.297652400571342660e-04,2.792245776391118817e+00,3.327521974905059518e-04
2.733788823437231713e+03,1.273244384181724920e+00,2.158020288777192720e-04,2.790445781871663478e+00,2.632016665685543840e-04
2.745204886201569479e+03,1.274268782817878476e+00,2.545257919485936380e-04,2.788644167496583837e+00,3.789430710254494314e-04
2.756668621444455312e+03,1.275160895112487758e+00,2.777938370131107599e-04,2.786900111110920619e+00,2.393632348465369979e-04
2.768180228241985333e+03,1.276196858744798490e+00,2.624544189584472717e-04,2.785091593264519272e+00,3.017902706669906877e-04
2.779739906501582482e+03,1.277339685518695145e+00,2.336535074696603493e-04,2.783241202250080537e+00,3.048937043916390209e-04
2.791347856965458504e+03,1.278276324865277314e+00,2.475924775991746561e-04,2.781364859596993977e+00,2.241299002603806150e-04
2.803004281214114599e+03,1.279360660716381215e+00,2.180197983890641035e-04,2.779539042202830768e+00,3.084425348373589972e-04
2.814709381669831600e+03,1.280445160802979876e+00,2.044193100904637323e-04,2.777664706079634893e+00,2.986964283353826127e-04
2.826463361600187909e+03,1.281501874243398564e+00,1.161396087789811450e-04,2.775748694229256408e+00,2.923727651952535132e-04
2.838266425121590146e+03,1.282564462278098283e+00,2.478672509447965491e-04,2.773816409438528918e+00,3.374056007278601827e-04
2.850118777202817455e+03,1.283748293488791159e+00,1.803564479667986171e-04,2.771859276868120503e+00,1.910393888351913654e-04
2.862020623668578992e+03,1.284640261806757833e+00,2.868153377537156182e-04,2.770032205649754609e+00,3.385563831759319585e-04
2.873972171203092330e+03,1.285818375615372711e+00,1.819742003861349886e-04,2.768102042330336410e+00,2.202193579933199249e-04
2.885973627353670508e+03,1.286921739686286648e+00,1.924264763030759365e-04,2.766140301529703471e+00,2.519264708985145449e-04
2.898025200534319538e+03,1.288059461548165974e+00,2.351856741708823742e-04,2.764076753658704089e+00,2.696615847298617849e-04
2.910127100029371377e+03,1.289108045934942881e+00,2.297563559086011615e-04,2.762233628910596206e+00,3.146211619104018697e-04
2.922279535997108269e+03,1.290296108891486160e+00,2.682720377729308427e-04,2.760192215754759815e+00,2.960534007470199932e-04
2.934482719473416182e+03,1.291394659117636623e+00,2.619456619808140509e-04,2.758260150964201962e+00,2.611767035091528506e-04
2.946736862375446435e+03,1.292634188522098215e+00,2.375055453118083738e-04,2.756173106322784783e+00,3.057167376063957059e-04
2.959042177505300060e+03,1.293765814530170033e+00,1.999673642666705703e-04,2.754159051887091980e+00,2.900880782039013403e-04
2.971398878553719442e+03,1.294855039465708346e+00,2.312624959207732606e-04,2.752078373722957050e+00,3.155025017060011819e-04
2.983807180103801329e+03,1.295867625978279314e+00,2.048214118842105723e-04,2.750104648907232718e+00,3.378766007232244487e-04
2.996267297634723036e+03,1.297246461442230991e+00,2.068339325017170280e-04,2.747943126941033931e+00,3.239660585115907224e-04
3.008779447525486376e+03,1.298401289548059445e+00,2.268963747617495507e-04,2.745877270366496870e+00,2.815284906981755796e-04
3.021343847058663869e+03,1.299512937051348516e+00,1.991492389580462217e-04,2.743795076459967675e+00,2.930451515873206824e-04
3.033960714424191337e+03,1.300919713467280081e+00,2.380891737781471492e-04,2.741627612671124314e+00,3.088865106636939722e-04
3.046630268723141853e+03,1.302063035695953053e+00,2.680623915712137769e-04,2.739594022349700175e+00,2.576785638790154835e-04
3.059352729971536974e+03,1.303304997797486209e+00,1.888851082273195132e-04,2.737225119723272648e+00,3.454955000944155024e-04
3.072128319104164802e+03,1.304452324020532128e+00,2.018762898650175712e-04,2.735168177903358977e+00,2.845600641608847753e-04
3.084957257978418056e+03,1.305872559846830594e+00,2.401006875763687335e-04,2.733016371521381771e+00,2.812666598040253403e-04
3.097839769378147139e+03,1.307187669884134040e+00,1.346207024815037755e-04,2.730845037988975932e+00,2.323308894195482311e-04
3.110776077017530497e+03,1.308425158555251544e+00,2.908543876208842332e-04,2.728572117099035133e+00,3.378530049369484660e-04
3.123766405544948611e+03,1.309736318038582148e+00,1.639541877165610277e-04,2.726391602669313130e+00,3.259476878624543755e-04
3.136810980546903011e+03,1.310948572156991565e+00,2.906827560032124581e-04,2.724179935107089001e+00,3.795671455158959161e-04
3.149910028551922096e+03,1.312284967730074081e+00,1.833827340785525563e-04,2.721948954488397909e+00,2.495275487705738890e-04
3.163063777034496525e+03,1.313716569581915294e+00,2.610207279355165433e-04,2.719602795204606238e+00,3.604240504888426297e-04
3.176272454419031419e+03,1.314928905820631488e+00,1.456413859577230672e-04,2.717251464052208298e+00,3.355632540846296237e-04
3.189536290083812219e+03,1.316416433717821244e+00,2.760803080862690609e-04,2.714976112636676930e+00,3.179305508390685452e-04
3.202855514364987812e+03,1.317765747392870557e+00,2.970199985975050167e-04,2.712644249107559524e+00,3.722480711648630015e-04
3.216230358560569584e+03,1.319076570829254447e+00,2.870059932470818117e-04,2.710311312926453109e+00,2.719216716608428841e-04
3.229661054934451386e+03,1.320431244460640974e+00,3.018472695701063615e-04,2.708015820623981718e+00,2.267440811673335655e-04
3.243147836720442683e+03,1.321873738030620027e+00,2.802039081548420994e-04,2.705628651634572002e+00,3.064219898717827667e-04
3.256690938126306264e+03,1.323133447052462275e+00,1.467608424699258908e-04,2.703224545766341524e+00,2.789346598561052992e-04
3.270290594337847779e+03,1.324764810122212921e+00,2.643078386030837056e-04,2.700740198750974930e+00,3.569828257699660698e-04
3.283947041522983909e+03,1.326098013916812146e+00,1.384234173354662197e-04,2.698329714350257369e+00,2.754019428464505323e-04
3.297660516835847375e+03,1.327612585378942001e+00,2.328470172922689641e-04,2.695862949625546179e+00,3.483857310403957997e-04
3.311431258420906488e+03,1.329013758273772439e+00,2.250189849623301550e-04,2.693425236201938411e+00,3.202054142808154918e-04
3.325259505417100627e+03,1.330544137963066031e+00,1.567258586436410259e-04,2.690865936531575464e+00,2.945325330946529669e-04
3.339145497961990714e+03,1.332018093434915729e+00,2.444176022091934563e-04,2.688371618202352487e+00,2.607540884956635195e-04
3.353089477195932432e+03,1.333504030598523737e+00,1.869041700505237635e-04,2.685884528327391330e+00,2.891409215850220134e-04
3.367091685266265358e+03,1.335071782604113411e+00,1.304244782024986465e-04,2.683239417648358938e+00,2.137790851261272716e-04
3.381152365331505735e+03,1.336413692807675080e+00,1.999541404521309811e-04,2.680768458662909914e+00,2.903564327922955146e-04
3.395271761565587440e+03,1.338024614538119605e+00,2.220833823774888112e-04,2.678239391941022340e+00,2.565866613112190555e-04
3.409450119162091141e+03,1.339616251066355179e+00,2.074024054635846949e-04,2.675569427055809690e+00,4.243730096645387793e-04
3.423687684338503004e+03,1.341181199622715869e+00,2.876030296328828352e-04,2.672909787568491069e+00,3.478988092199781579e-04
3.437984704340493408e+03,1.342738598584270582e+00,2.543814626140481188e-04,2.670288373429565265e+00,2.443454965312890454e-04
3.452341427446207945e+03,1.344315371877951026e+00,1.956164832315757042e-04,2.667624622461731931e+00,3.609321596914326098e-04
3.466758102970580239e+03,1.345998826130927917e+00,1.403034218713432671e-04,2.664813977367866737e+00,2.917123514838176521e-04
3.481234981269661603e+03,1.347620373035522956e+00,2.752466132482911648e-04,2.662143370918071739e+00,3.460108061098008205e-04
3.495772313744967960e+03,1.349141550452144012e+00,3.004362161923358515e-04,2.659441838114587231e+00,3.541134467523962830e-04
3.510370352847849517e+03,1.350696697604749419e+00,2.505917803247671369e-04,2.656679924714005381e+00,3.698275100131487737e-04
3.525029352083860886e+03,1.352496996816090036e+00,2.037843103079276679e-04,2.653831239822177057e+00,2.382430467052001888e-04
3.539749566017183952e+03,1.354215597930127357e+00,1.283616009717303741e-04,2.651073957152582317e+00,2.743200496197414646e-04
3.554531250275034381e+03,1.355824792113349719e+00,2.000488306355522358e-04,2.648339405623402421e+00,3.897027670068111630e-04
3.569374661552106318e+03,1.357620125163939928e+00,2.239741356809101045e-04,2.645418478253295902e+00,2.916607334007861288e-04
3.584280057615026635e+03,1.359138464055487550e+00,2.530428492860325399e-04,2.642613265540990852e+00,3.282112208713657041e-04
3.599247697306833743e+03,1.360957307839066655e+00,1.757898547704161030e-04,2.639606717930230495e+00,3.565757880118983355e-04
3.614277840551472764e+03,1.362671067533211877e+00,2.073767135898067933e-04,2.636701851923775930e+00,4.082963940133366013e-04
3.629370748358310721e+03,1.364435768639550073e+00,2.204655310920093300e-04,2.633739798842793522e+00,3.506288653392326338e-04
3.644526682826656270e+03,1.366121977282220845e+00,2.337298214049624782e-04,2.630890399781947053e+00,3.770630932877388803e-04
3.659745907150334006e+03,1.367991974314056502e+00,2.450649334004823638e-04,2.627743964124396037e+00,3.963815106177595127e-04
3.675028685622237845e+03,1.369833466019886092e+00,2.112356549070895705e-04,2.624643312855730493e+00,2.658162911203864145e-04
3.690375283638925794e+03,1.371537687095966129e+00,2.245182010771669282e-04,2.621762398132075678e+00,3.789035210700771017e-04
3.705785967705229723e+03,1.373453807619518408e+00,1.764740873577695418e-04,2.618607250287525279e+00,3.227690476679808220e-04
3.721261005438881512e+03,1.375148391806964021e+00,2.475368987647841908e-04,2.615536536721837280e+00,3.675327560131836464e-04
3.736800665575161020e+03,1.376970407865243384e+00,2.908096708180683029e-04,2.612443373242502087e+00,3.239677674158973598e-04
3.752405217971563616e+03,1.378869556437748445e+00,1.875967197761991439e-04,2.609265108930796551e+00,2.978770988027611057e-04
3.768074933612485893e+03,1.380894646591837693e+00,1.748502405260733098e-04,2.606050537234822606e+00,3.306776022486154851e-04
3.783810084613935487e+03,1.382581757067734785e+00,2.388730483639255368e-04,2.602988942331328825e+00,2.741414005081874768e-04
3.799610944228240442e+03,1.384567724472214767e+00,2.108529795689842836e-04,2.599568171661647664e+00,3.974196615843801996e-04
3.815477786848819051e+03,1.386556488237521423e+00,2.009151345939869939e-04,2.596337786470057640e+00,3.713621043508389774e-04
3.831410888014928332e+03,1.388337831625247487e+00,2.421475967197008166e-04,2.593025444490484777e+00,2.947552398228931044e-04
3.847410524416452517e+03,1.390517062358452849e+00,1.650937725938553193e-04,2.589702061889487261e+00,3.843024694454534791e-04
3.863476973898709275e+03,1.392303265363750153e+00,2.490268924323058540e-04,2.586369578395670832e+00,4.242981995330767837e-04
