# #Freq[Hz], #Gain_mean[a.u.], #Gain_std[a.u.], #Phase_mean[rad], #Phase_std[rad]
1.000000000000000000e+03,6.142592873007287624e-01,1.864977999942619839e-04,-1.846830512585758255e+00,2.398020877377074857e-04
1.018628990244687543e+03,6.248274813157966845e-01,1.511459755472528059e-04,-1.851838078506884866e+00,4.208176643467370528e-04
1.037605019766911710e+03,6.355890869091642692e-01,2.694204232168785130e-04,-1.856801669508170161e+00,1.861792388583028411e-04
1.056934553557988465e+03,6.463568202098232129e-01,1.913449700337216180e-04,-1.861613606968390400e+00,4.965006083720127942e-04
1.076624177045493298e+03,6.575919924948541162e-01,2.219740893161959317e-04,-1.866866309180884587e+00,3.175090839792457566e-04
1.096680598336868570e+03,6.688256271784079887e-01,2.298621484906783062e-04,-1.871967013927355650e+00,3.823992004478287006e-04
1.117110650504824207e+03,6.800437232929152920e-01,1.907611388353280932e-04,-1.877226302489089615e+00,3.145678259684273059e-04
1.137921293915315118e+03,6.917130733456140490e-01,1.729315952788005651e-04,-1.882644141481959910e+00,3.602728474695540283e-04
1.159119618598885609e+03,7.029842730912145843e-01,1.997160729134869988e-04,-1.888178215756495693e+00,2.547409317152788668e-04
1.180712846666190217e+03,7.145930778304939723e-01,1.573729125626267258e-04,-1.893448890753364866e+00,4.090123718930389267e-04
1.202708334768512032e+03,7.262575537322263353e-01,2.331740527150265177e-04,-1.898957332918524754e+00,2.394635014735901999e-04
1.225113576604119089e+03,7.383183300186868525e-01,1.727607413559034710e-04,-1.904625034129683980e+00,4.971564377547357892e-04
1.247936205471311496e+03,7.503610536827285404e-01,2.194683075351011516e-04,-1.910365513816984606e+00,1.807876241087005267e-04
1.271183996869028761e+03,7.626525176663132566e-01,2.011581951282679552e-04,-1.916225848840111157e+00,2.960864058604407794e-04
1.294864871145904999e+03,7.751500355076933468e-01,2.704348457091332639e-04,-1.922088419036246609e+00,3.392037922486081320e-04
1.318986896198670593e+03,7.880374328087926816e-01,1.878800008081084869e-04,-1.928023822688536004e+00,2.754479422925702596e-04
1.343558290220826166e+03,8.008075027792059819e-01,2.015535727648093899e-04,-1.934212307032723954e+00,3.460331535263482493e-04
1.368587424502519070e+03,8.137907529466279488e-01,1.426013692383633672e-04,-1.940487038828036415e+00,1.985207439295537456e-04
1.394082826282578480e+03,8.269247547845832713e-01,1.815387341448784027e-04,-1.946675556629927639e+00,2.087441268425249739e-04
1.420053181653683168e+03,8.402200968424284877e-01,2.170015890716815753e-04,-1.952937282325214685e+00,3.033047151662767392e-04
1.446507338521647171e+03,8.536194723363431658e-01,2.593791574688425559e-04,-1.959400208711382874e+00,3.475668515721400055e-04
1.473454309619835840e+03,8.673054832471326359e-01,1.635734734933661525e-04,-1.965968955243343474e+00,1.786546314406121873e-04
1.500903275579736601e+03,8.809058337196331578e-01,1.843796703549744969e-04,-1.972378543355669311e+00,1.498345631831737097e-04
1.528863588058731011e+03,8.947126034391292837e-01,1.918978191778089560e-04,-1.979158778675597530e+00,2.474244520451106483e-04
1.557344772926135192e+03,9.089183971619722024e-01,2.616858736048930149e-04,-1.985759093737290870e+00,2.100131731229653957e-04
1.586356533508589564e+03,9.231014721791332978e-01,2.453377904042896933e-04,-1.992630355588272506e+00,2.055899282642064134e-04
1.615908753895919062e+03,9.371405053707915211e-01,2.101012571175554094e-04,-1.999637907221338606e+00,1.477605233016664123e-04
1.646011502308549780e+03,9.516235647592028446e-01,2.066565391950373279e-04,-2.006512553204115257e+00,2.045504257072829405e-04
1.676675034527699154e+03,9.663352113304707336e-01,1.511339913208666942e-04,-2.013781223739396165e+00,1.238009577043635407e-04
1.707909797389426785e+03,9.807183607674062609e-01,1.721055222134730458e-04,-2.020784386154130363e+00,1.814253608052085779e-04
1.739726432343800752e+03,9.956523192716583148e-01,1.709959171359090048e-04,-2.028164793473243854e+00,2.512062937088730525e-04
1.772135779080358361e+03,1.010417057963068244e+00,2.120546177738264111e-04,-2.035458685942161949e+00,2.737839357995859786e-04
1.805148879221108245e+03,1.025536080927303084e+00,2.201986289560091089e-04,-2.042876849822947261e+00,2.164150661797249969e-04
1.838776980082326872e+03,1.040658839049476869e+00,2.594465261489191203e-04,-2.050222963845439672e+00,2.246893063824600143e-04
1.873031538506436618e+03,1.055991496068112934e+00,3.009711842567984333e-04,-2.058032804912452551e+00,1.376828174047281062e-04
1.907924224765265080e+03,1.071312336726347514e+00,2.433740698663550562e-04,-2.065643427181841130e+00,1.088716347850989376e-04
1.943466926536020310e+03,1.086665498848512934e+00,2.131947486732966896e-04,-2.073317239944601376e+00,1.674547461907229938e-04
1.979671752951332564e+03,1.102121483191920159e+00,3.845396339869386706e-04,-2.081120322830324110e+00,2.501300076882180014e-04
2.016551038724746377e+03,1.117567739449038200e+00,2.727222778249956841e-04,-2.088957719360317711e+00,1.819278648876109601e-04
2.054117348353064244e+03,1.133416228712448071e+00,2.602586516990166112e-04,-2.097051255617318866e+00,1.524502834145349697e-04
2.092383480396977120e+03,1.149279683448344525e+00,2.186711236110865163e-04,-2.105136419686004068e+00,2.305196257296377479e-04
2.131362471841437582e+03,1.165214318189381704e+00,2.052020164372632307e-04,-2.113192443608238769e+00,2.126926241253920770e-04
2.171067602537264975e+03,1.181024309946514084e+00,1.969687700452549663e-04,-2.121308750798631682e+00,2.452740010151305489e-04
2.211512399725488649e+03,1.196916100018822871e+00,1.864380619574009402e-04,-2.129438866501990990e+00,1.803277893280791182e-04
2.252710642645980442e+03,1.212493610510568143e+00,1.813092948236489689e-04,-2.137904956130353362e+00,2.664209862064875821e-04
2.294676367231936183e+03,1.228524948221497048e+00,1.721812229686826173e-04,-2.146325489050995294e+00,2.797953374866459430e-04
2.337423870891815113e+03,1.244528705765285626e+00,1.401696996111714507e-04,-2.154842148417325909e+00,2.061441760020593184e-04
2.380967717380358408e+03,1.260516756429459040e+00,3.132258884146020138e-04,-2.163280502702463082e+00,2.091393365048660772e-04
2.425322741760352983e+03,1.276665608472667746e+00,1.183982668018275389e-04,-2.171801334090986746e+00,2.149516215137074792e-04
2.470504055456825427e+03,1.293005086114344504e+00,1.659298786534578430e-04,-2.180396254884455320e+00,1.765032935945250213e-04
2.516527051405391830e+03,1.309067601162070771e+00,3.070221895411842910e-04,-2.189203003200434594e+00,1.405877509009654993e-04
2.563407409296515198e+03,1.325160127125083465e+00,2.603377255143907772e-04,-2.197855130291399117e+00,1.470721936881984728e-04
2.611161100917459407e+03,1.341284000077269001e+00,2.818575103940511284e-04,-2.206662445614315793e+00,1.695240948375423317e-04
2.659804395593758272e+03,1.357450504056904483e+00,1.192057401320777854e-04,-2.215565999234888395e+00,1.524878692060988668e-04
2.709353865732051418e+03,1.373463252732883166e+00,3.287168498453382553e-04,-2.224434917746104468e+00,1.484447977093751082e-04
2.759826392466180550e+03,1.389416946761915295e+00,3.255805723715597720e-04,-2.233376385871781444e+00,2.501335310189756298e-04
2.811239171408464244e+03,1.405615560913040074e+00,3.557966702633003401e-04,-2.242339757244914633e+00,1.865299529934175539e-04
2.863609718508115748e+03,1.421690953275812852e+00,4.544543260718352461e-04,-2.251511552535459870e+00,2.443077583589900567e-04
2.916955876018796062e+03,1.437675662941521715e+00,2.753195961374334147e-04,-2.260508858607329863e+00,1.417691175749297226e-04
2.971295818577334103e+03,1.453685160621339900e+00,2.583601768991200943e-04,-2.269604207997117040e+00,1.834344811298511079e-04
3.026648059395692144e+03,1.469372622503126724e+00,2.782209266392050677e-04,-2.278711029308867708e+00,1.780428164588746301e-04
3.083031456568277008e+03,1.485335898676440669e+00,1.887588592845094028e-04,-2.287933435923535708e+00,1.773651511477636507e-04
3.140465219496752070e+03,1.500973918909873195e+00,1.826683526097061701e-04,-2.296956562343809072e+00,2.277974258273330178e-04
3.198968915434537848e+03,1.516843609946184834e+00,2.614187530661806185e-04,-2.306182784698330046e+00,1.347573221824530500e-04
3.258562476153226271e+03,1.532275597196696371e+00,2.373047986374213084e-04,-2.315489141404677209e+00,2.202298689546177692e-04
3.319266204733189625e+03,1.547762998405454171e+00,2.205836075327057824e-04,-2.324728722984561902e+00,1.475018312415996100e-04
3.381100782480685211e+03,1.563044445269005989e+00,3.574647135898983172e-04,-2.334005957741514425e+00,1.499034910219971552e-04
3.444087275973823580e+03,1.578395366014734513e+00,2.257040258841527239e-04,-2.343293811961721929e+00,1.777121456894215274e-04
3.508247144239792306e+03,1.593350547027571285e+00,3.753102321475006685e-04,-2.352605120982110609e+00,1.482661962026261739e-04
3.573602246065788222e+03,1.608296037384874921e+00,1.999671525290256020e-04,-2.361898112261566318e+00,1.572669810418781951e-04
3.640174847446141484e+03,1.623603442834187449e+00,2.213969767238295884e-04,-2.371250483194452752e+00,1.364924690185100313e-04
3.707987629168172589e+03,1.638220375746069823e+00,3.641785747770667032e-04,-2.380487225067500656e+00,1.772695482566107375e-04
3.777063694539364406e+03,1.652646667981839901e+00,2.052657497480815652e-04,-2.389819532683136405e+00,8.808089014467526527e-05
3.847426577258505858e+03,1.666998541673907708e+00,2.838295874077014554e-04,-2.399216990487115897e+00,1.560041073262027542e-04
3.919100249433402041e+03,1.680976012672131814e+00,3.267373361241016007e-04,-2.408414882155136549e+00,1.768940740431596014e-04
3.992109129748053419e+03,1.695078592224814162e+00,3.598087960857987715e-04,-2.417685886683374807e+00,1.859483826117975939e-04
4.066478091781853891e+03,1.708997901920436435e+00,2.386897843992130273e-04,-2.426910346438824639e+00,1.470068870231547515e-04
4.142232472483898164e+03,1.722676913931939779e+00,3.047543752865258847e-04,-2.436296990578965538e+00,1.975439228064431059e-04
4.219398080805023710e+03,1.736279788943626112e+00,2.355065130606686481e-04,-2.445443171202588140e+00,2.014536567997204160e-04
4.298001206490798722e+03,1.749832764031325594e+00,1.845627872042012786e-04,-2.454719725701024036e+00,1.572407643039906537e-04
4.378068629038166364e+03,1.763208621759358552e+00,2.487242948129249668e-04,-2.463932029054347161e+00,1.760526152631586999e-04
4.459627626819095894e+03,1.775865598322831529e+00,1.894392556407596597e-04,-2.473099206145575657e+00,1.819222181283727563e-04
4.542705986374043277e+03,1.788629732055941890e+00,3.019113821747367661e-04,-2.482283598325273566e+00,1.561013818385890289e-04
4.627332011878693265e+03,1.801311389982898969e+00,1.994685406434826551e-04,-2.491257651994327027e+00,1.118089814089925091e-04
4.713534534786906988e+03,1.814002838487734692e+00,2.711516888161185300e-04,-2.500356415108138552e+00,1.495128357140359252e-04
4.801342923653450271e+03,1.825962269981535657e+00,3.033257735975983206e-04,-2.509310118644338949e+00,1.938335869025743091e-04
4.890787094139589499e+03,1.838307515941395520e+00,2.702441625282757192e-04,-2.518420699748610936e+00,1.337169634352386840e-04
4.981897519205160279e+03,1.850114200317973356e+00,2.327418488708950575e-04,-2.527333094707110206e+00,1.408772817346369761e-04
5.074705239490465829e+03,1.861692488841911963e+00,3.607559912780543623e-04,-2.536228423410020305e+00,1.522188862858179007e-04
5.169241873891598516e+03,1.873188050088399281e+00,1.442736506685799076e-04,-2.545147673137081679e+00,1.306637039772783732e-04
5.265539630332755223e+03,1.884244432775106004e+00,2.710545503925374921e-04,-2.553885220860304006e+00,1.950298440471278098e-04
5.363631316739239992e+03,1.895436838826502823e+00,3.491538228794841664e-04,-2.562644968389146349e+00,1.773728365125139836e-04
5.463550352214875602e+03,1.906250315385513927e+00,2.336689148881641420e-04,-2.571392672205231378e+00,1.929648646662334745e-04
5.565330778427645782e+03,1.916499060049255077e+00,3.394987115697650055e-04,-2.580097012011226543e+00,2.237829406771572687e-04
5.669007271207434314e+03,1.926694004717238951e+00,3.507027236369142159e-04,-2.588552861776128644e+00,1.322538813120195200e-04
5.774615152359820058e+03,1.936854284399520676e+00,2.927483783003879329e-04,-2.597185157156020274e+00,1.155309858807186424e-04
5.882190401699956055e+03,1.946954943342763755e+00,2.332101662260522082e-04,-2.605624274271195251e+00,1.506424004087145792e-04
5.991769669310619065e+03,1.956528914969791755e+00,3.415458954110631227e-04,-2.614094703342193515e+00,1.313636935898143080e-04
6.103390288028621399e+03,1.965898220048913458e+00,2.641008806672772986e-04,-2.622420997295761946e+00,9.661773694806957160e-05
6.217090286163826931e+03,1.975165730553012811e+00,3.053387573182140494e-04,-2.630724580888080588e+00,2.157432584165364174e-04
6.332908400455115043e+03,1.984209173475793175e+00,3.085470666014732502e-04,-2.638934281416696503e+00,1.266598507309380016e-04
6.450884089267692616e+03,1.992839388908363762e+00,3.234133597025129351e-04,-2.647142747016700604e+00,1.439530065364430132e-04
6.571057546036270651e+03,2.001229452464410752e+00,3.257682946158870678e-04,-2.655204430514670033e+00,1.073482384456137748e-04
6.693469712958661148e+03,2.009714615910257240e+00,2.013703014475257190e-04,-2.663201740391919703e+00,1.031810685917456056e-04
6.818162294944479072e+03,2.018021567909209502e+00,2.910284211422213899e-04,-2.671080825162461814e+00,1.348017703501115671e-04
6.945177773823696043e+03,2.025617822708697169e+00,4.195513142623144630e-04,-2.679019051255548511e+00,1.949385917005325337e-04
7.074559422819878819e+03,2.033581033533368831e+00,2.789463135066067652e-04,-2.686821732892181736e+00,8.394914642398931261e-05
7.206351321293052024e+03,2.040990148252842751e+00,3.181170492246810570e-04,-2.694461650281305243e+00,8.266613777937148694e-05
7.340598369757211913e+03,2.048288513502033670e+00,3.426514447757458251e-04,-2.702013957873007577e+00,1.655424042627638844e-04
7.477346305177587965e+03,2.055396737511833383e+00,1.536207927768797976e-04,-2.709567887804564368e+00,1.721482022883861075e-04
7.616641716552891921e+03,2.062315202241877365e+00,2.576615687515267897e-04,-2.717165552286599173e+00,1.485278402660409063e-04
7.758532060787835690e+03,2.068951212377164506e+00,4.233666682387379971e-04,-2.724419288594488897e+00,2.023332415048883690e-04
7.903065678861347806e+03,2.075196333873842391e+00,3.544856364077109048e-04,-2.731859350441761425e+00,2.359480437506845647e-04
8.050291812295980890e+03,2.081652325709089979e+00,4.061780854332383236e-04,-2.738915836700384077e+00,2.359876525259830106e-04
8.200260619934129863e+03,2.087767172166585361e+00,2.482299910873802260e-04,-2.746147976503062971e+00,1.624409375000774843e-04
8.353023195026778922e+03,2.093780731337492096e+00,3.236027877591406165e-04,-2.753209655336075201e+00,1.647433090914412893e-04
8.508631582640580746e+03,2.099484582841182778e+00,3.045110067499577286e-04,-2.760161078621424569e+00,1.738842624936002786e-04
8.667138797389232423e+03,2.104905454723982050e+00,4.580338001705628356e-04,-2.767136159603569290e+00,1.989539113588758483e-04
8.828598841495149827e+03,2.110109156990326529e+00,2.616562571632003787e-04,-2.773905929124493408e+00,1.229505805261014268e-04
8.993066723187623211e+03,2.115610989098105410e+00,3.288314380648026634e-04,-2.780532595447877675e+00,8.519707591826683533e-05
9.160598475443708594e+03,2.120496523365038577e+00,3.092265887118120032e-04,-2.787223153172700307e+00,1.544363791546380889e-04
9.331251175078250526e+03,2.125265667919992385e+00,4.026326663083879031e-04,-2.793787260772243375e+00,1.117523923765308808e-04
9.505082962189511818e+03,2.129949513586244514e+00,1.542875687881509054e-04,-2.800362662042414019e+00,1.683509435968451632e-04
9.682153059967076842e+03,2.134330695647741472e+00,4.738707323713181466e-04,-2.806676359395724685e+00,1.423566942688648412e-04
9.862521794868784127e+03,2.138967924300048118e+00,3.315101754971420760e-04,-2.812929136675640596e+00,8.965497993133657512e-05
1.004625061717340213e+04,2.142707444372709880e+00,4.548823424933121800e-04,-2.819198289535298052e+00,2.020708086630700951e-04
1.023340212191642240e+04,2.147167632189904030e+00,2.333766035657003314e-04,-2.825310221092931506e+00,1.646207152420688655e-04
1.042404007021555844e+04,2.150868742984059168e+00,3.913996011379154445e-04,-2.831404441488973411e+00,1.831396038650384001e-04
1.061822941099384661e+04,2.154621020035738077e+00,2.620572575935244748e-04,-2.837353116788767338e+00,2.459267716985621380e-04
1.081603630310709377e+04,2.158298966667941965e+00,2.327969313026883268e-04,-2.843213813338074214e+00,2.509847148517533612e-04
1.101752813788387357e+04,2.161826560118792706e+00,4.499883138763296196e-04,-2.849078584908996792e+00,2.060310466416149611e-04
1.122277356208507081e+04,2.165082134484338727e+00,2.323891027388635326e-04,-2.854826324227831780e+00,1.536176493090351310e-04
1.143184250129150314e+04,2.168134596474915021e+00,3.667235381819681801e-04,-2.860511772051276047e+00,2.233546468865715612e-04
1.164480618372685421e+04,2.171523429996703669e+00,1.446438690372777586e-04,-2.866044706584066404e+00,2.231660875631812449e-04
1.186173716452479130e+04,2.174746074501157089e+00,4.060769456229268112e-04,-2.871489232368200639e+00,1.832534443143032606e-04
1.208270935044775979e+04,2.177354348953385532e+00,3.613840688444096868e-04,-2.876918842701818413e+00,1.479629386167960394e-04
1.230779802506665874e+04,2.180117230402975004e+00,5.710730696569192967e-04,-2.882270037381574390e+00,1.463571615684746720e-04
1.253707987440919715e+04,2.182752708525652174e+00,2.735817317966974670e-04,-2.887562659447006297e+00,1.798125862079930689e-04
1.277063301308644623e+04,2.185521081769582263e+00,5.584815966140943859e-04,-2.892673831822804242e+00,1.803711526469140686e-04
1.300853701090570576e+04,2.187790492725110170e+00,5.415231940395556082e-04,-2.897734652071811023e+00,2.198264069060850583e-04
1.325087291997953798e+04,2.190226713048137874e+00,6.824383226801929506e-04,-2.902820869573840667e+00,2.095906708568925838e-04
1.349772330233941830e+04,2.192563697447781568e+00,3.494391689314229948e-04,-2.907840195955151863e+00,2.075247697198763790e-04
1.374917225806420538e+04,2.194614859461822221e+00,5.109200679241810306e-04,-2.912630862312949098e+00,1.940489653782944443e-04
1.400530545393219654e+04,2.196798029822616627e+00,2.767460533435840762e-04,-2.917405979408081773e+00,2.781792537912840843e-04
1.426621015260735476e+04,2.198660642797707787e+00,2.185448125453106174e-04,-2.922293233630347320e+00,1.545819867220494072e-04
1.453197524236895333e+04,2.200494091245745576e+00,4.051940605419798464e-04,-2.926880592156240191e+00,2.203849629176178571e-04
1.480269126739510102e+04,2.202435816708168570e+00,2.727120447515466936e-04,-2.931538693897646208e+00,1.861214776826964333e-04
1.507845045861051040e+04,2.204271620732870307e+00,3.729167635834022831e-04,-2.936071578746147104e+00,1.883257262229287815e-04
1.535934676510895406e+04,2.205985086563271302e+00,5.888786806063825950e-04,-2.940395448169478954e+00,2.013801372159571294e-04
1.564547588616095891e+04,2.207910986334414183e+00,4.068626289371353043e-04,-2.944821701259605184e+00,2.027289783775295469e-04
1.593693530381776145e+04,2.209446744541879948e+00,4.546562507357074299e-04,-2.949296494145082992e+00,2.276225393809347430e-04
1.623382431612278197e+04,2.210772840188220734e+00,3.548376554491529519e-04,-2.953586218181623035e+00,2.136345236913170177e-04
1.653624407094178605e+04,2.212292703423264228e+00,4.629279101610900716e-04,-2.957602007236185493e+00,2.568982937142322222e-04
1.684429760042315320e+04,2.213969571258588509e+00,5.604511652220347346e-04,-2.961757968984708889e+00,2.950310549163697523e-04
1.715808985610006494e+04,2.215066141615725126e+00,4.729686127889609474e-04,-2.965811801395984659e+00,2.872697244294209547e-04
1.747772774464680697e+04,2.216118965383365058e+00,3.688336323447163542e-04,-2.970016088134873833e+00,2.588951299486434059e-04
1.780332016430111980e+04,2.217783319270939302e+00,5.503397051561616021e-04,-2.973753411475532626e+00,2.044562328401106587e-04
1.813497804196495417e+04,2.218774613427327402e+00,4.377223704203257412e-04,-2.977795266392053275e+00,1.944438023884012816e-04
